Data from Reflection_12-39-45-210.txt Node
Date: Fri Mar 09 12:39:45 AEDT 2018
User: gauss
Spectrometer: FLMT02295
Trigger mode: 0
Integration Time (sec): 1.000000E-1
Scans to average: 1
Electric dark correction enabled: true
Nonlinearity correction enabled: false
Boxcar width: 0
XAxis mode: Wavelengths
Number of Pixels in Spectrum: 3648
>>>>>Begin Spectral Data<<<<<
343.149	35.91
343.366	35.91
343.583	35.91
343.8	45.95
344.017	96.06
344.234	500
344.451	565.06
344.668	17300
344.885	942.11
345.101	-37.82
345.318	-844.83
345.535	76.21
345.752	16.42
345.969	186.24
346.186	134.78
346.403	62.71
346.619	305.63
346.836	47.54
347.053	36.27
347.27	36.83
347.487	47.46
347.703	30.86
347.92	2.96
348.137	-11.05
348.353	53.45
348.57	28.61
348.787	57.43
349.003	36.72
349.22	46.45
349.437	40.87
349.653	44.18
349.87	16.25
350.087	27.95
350.303	22.15
350.52	14.59
350.736	34.47
350.953	-24.27
351.169	28.82
351.386	34.6
351.602	9.9
351.819	27.39
352.035	42.49
352.252	47.35
352.468	30.3
352.685	55.94
352.901	25.18
353.118	34.62
353.334	10.36
353.551	-7.26
353.767	23.65
353.983	6.04
354.2	17.79
354.416	47.24
354.632	17.17
354.849	22.83
355.065	11.76
355.281	30.33
355.498	24.09
355.714	31.46
355.93	19.76
356.146	25.39
356.363	13.31
356.579	23.13
356.795	21.73
357.011	25.75
357.227	32.5
357.444	25.72
357.66	8.18
357.876	17.48
358.092	29.23
358.308	25.27
358.524	38.52
358.74	33.64
358.956	30.36
359.172	22.13
359.388	23.06
359.605	28.09
359.821	16.74
360.037	47.83
360.253	19.08
360.469	27.68
360.685	12.52
360.901	21.96
361.116	32.49
361.332	21.85
361.548	18.72
361.764	8.71
361.98	29.85
362.196	11.04
362.412	24.7
362.628	22.47
362.844	35.26
363.059	34.68
363.275	10.17
363.491	24.94
363.707	31.51
363.923	5.83
364.138	31.68
364.354	26.33
364.57	25.94
364.786	35.12
365.001	12.88
365.217	20.2
365.433	16.89
365.648	15.66
365.864	0.65
366.08	32.55
366.295	16.92
366.511	24.34
366.727	21.48
366.942	7.68
367.158	32.98
367.373	23.27
367.589	39.99
367.805	32.17
368.02	28.89
368.236	17.85
368.451	13.19
368.667	14.18
368.882	20.85
369.098	22.91
369.313	14.36
369.528	7.49
369.744	8.67
369.959	25.01
370.175	25.13
370.39	6.87
370.605	22.73
370.821	21.9
371.036	18.89
371.252	26.57
371.467	12.11
371.682	15.93
371.898	28.48
372.113	9.43
372.328	25.79
372.543	25.22
372.759	12.3
372.974	15.71
373.189	8.02
373.404	26.46
373.619	11.53
373.835	11.35
374.05	27.87
374.265	18.01
374.48	18.06
374.695	18.79
374.91	37.3
375.126	23.84
375.341	18.47
375.556	18.5
375.771	18.22
375.986	23.76
376.201	15.31
376.416	23.56
376.631	7.51
376.846	18.78
377.061	16.66
377.276	8.15
377.491	18.82
377.706	17.05
377.921	6.62
378.136	13.24
378.351	24.36
378.566	17.77
378.78	18.85
378.995	20.72
379.21	17.31
379.425	23.73
379.64	20.88
379.855	24.17
380.069	18.56
380.284	13.21
380.499	14.01
380.714	12.86
380.929	9.22
381.143	13.63
381.358	11.93
381.573	20.41
381.787	27.28
382.002	8.08
382.217	20.67
382.432	18.08
382.646	8.13
382.861	19.38
383.075	12.82
383.29	21.22
383.505	13.25
383.719	17.75
383.934	12.83
384.148	16.83
384.363	4.88
384.577	18.04
384.792	16.09
385.007	12.74
385.221	10.32
385.436	14.35
385.65	19.11
385.864	17.64
386.079	17.4
386.293	17.12
386.508	14.28
386.722	16.69
386.937	13.18
387.151	17.74
387.365	12.21
387.58	8.73
387.794	20.06
388.008	12.69
388.223	16.73
388.437	12.21
388.651	10.74
388.865	18.56
389.08	15.51
389.294	18
389.508	12.12
389.722	21.78
389.937	16.68
390.151	14.16
390.365	14.91
390.579	15.88
390.793	15.21
391.008	13.95
391.222	12.39
391.436	15.81
391.65	19.08
391.864	10.95
392.078	14.26
392.292	14.06
392.506	14.94
392.72	12.09
392.934	15.75
393.148	15.87
393.362	16.74
393.576	14.67
393.79	17.68
394.004	16.07
394.218	15.18
394.432	17.49
394.646	19.93
394.86	15.25
395.074	16.34
395.288	19.81
395.502	13.18
395.715	13.71
395.929	18.64
396.143	13.2
396.357	13.08
396.571	17.12
396.784	15.67
396.998	12.1
397.212	10.95
397.426	19.42
397.64	11.69
397.853	15.78
398.067	8.11
398.281	17.08
398.494	8.58
398.708	11.79
398.922	10.23
399.135	16.06
399.349	14.74
399.563	12.81
399.776	11.79
399.99	14.19
400.203	15.29
400.417	13.77
400.63	16.6
400.844	14.48
401.058	17.14
401.271	9.17
401.485	13.58
401.698	9.3
401.912	9.85
402.125	12.31
402.338	16.08
402.552	15.74
402.765	16.25
402.979	15.37
403.192	10.62
403.405	14.89
403.619	13.81
403.832	10.9
404.046	16.91
404.259	15.72
404.472	13.15
404.685	13.35
404.899	9.4
405.112	15.03
405.325	11.07
405.539	12.03
405.752	14.48
405.965	18.2
406.178	10.85
406.391	13.76
406.605	12.89
406.818	14.74
407.031	13.12
407.244	11.2
407.457	13.26
407.67	14.63
407.883	15.89
408.097	9.7
408.31	13.31
408.523	17.95
408.736	12.02
408.949	12.29
409.162	16.21
409.375	13.51
409.588	13.94
409.801	17.63
410.014	12.68
410.227	12.71
410.44	13.24
410.653	14.08
410.865	10.88
411.078	12.07
411.291	13.53
411.504	12.19
411.717	12.98
411.93	12.34
412.143	14.3
412.356	10.83
412.568	14.97
412.781	12.93
412.994	13.94
413.207	11.01
413.419	12.38
413.632	14.18
413.845	13.14
414.058	11.01
414.27	11.73
414.483	14.55
414.696	12.83
414.908	13.52
415.121	10.6
415.334	17.03
415.546	13.22
415.759	8
415.972	14.88
416.184	13.9
416.397	11.13
416.609	13.18
416.822	13.27
417.034	9.75
417.247	10.48
417.459	9.19
417.672	12.03
417.884	10.53
418.097	13.34
418.309	11.96
418.522	14.73
418.734	13.72
418.947	13.82
419.159	14.27
419.371	12.36
419.584	10.92
419.796	13.16
420.008	12.67
420.221	13.77
420.433	14.97
420.645	12.46
420.858	12.21
421.07	11.48
421.282	9.69
421.494	13.96
421.707	11.58
421.919	13.82
422.131	12.77
422.343	10.59
422.556	13.03
422.768	11.97
422.98	11.84
423.192	13.01
423.404	11.87
423.616	13.56
423.828	10.23
424.041	13.47
424.253	12.9
424.465	11.99
424.677	15.33
424.889	13.06
425.101	11.71
425.313	13.97
425.525	11.31
425.737	12.25
425.949	10.71
426.161	11.17
426.373	13.17
426.585	10.87
426.797	10.83
427.008	12.19
427.22	12.08
427.432	13.33
427.644	13.38
427.856	11.35
428.068	11.58
428.28	10.74
428.491	12.06
428.703	9.9
428.915	12.62
429.127	11.11
429.338	12.65
429.55	13.55
429.762	11.23
429.974	11.15
430.185	11.71
430.397	10.74
430.609	12.57
430.82	13
431.032	11.69
431.244	12.45
431.455	10.42
431.667	11.89
431.879	9.35
432.09	13.49
432.302	9.17
432.513	11.86
432.725	11.12
432.936	11.28
433.148	11.83
433.359	16.04
433.571	14.18
433.782	11.69
433.994	12.13
434.205	11.11
434.417	12.33
434.628	13.69
434.84	14.67
435.051	10.18
435.262	12.42
435.474	12.73
435.685	9.7
435.896	10.78
436.108	12.21
436.319	12.32
436.53	11.62
436.742	11.67
436.953	10.42
437.164	13.58
437.375	11.51
437.587	10.87
437.798	11.59
438.009	12.49
438.22	11.73
438.431	11.05
438.643	11.06
438.854	9.79
439.065	13.65
439.276	12.22
439.487	10.5
439.698	11.99
439.909	10.19
440.12	9.69
440.331	11.6
440.542	11.73
440.754	9.81
440.965	11.28
441.176	10.34
441.387	11.87
441.597	10.68
441.808	11.33
442.019	11.54
442.23	12.05
442.441	11.14
442.652	12.94
442.863	9.09
443.074	12.64
443.285	12.07
443.496	12.59
443.707	10.69
443.917	10.81
444.128	11.24
444.339	11.51
444.55	10.06
444.761	11.18
444.971	10.86
445.182	11.11
445.393	10.96
445.604	10.96
445.814	10.69
446.025	11.05
446.236	11.12
446.446	11.26
446.657	11.63
446.868	11.15
447.078	8.93
447.289	10.84
447.499	10.82
447.71	10.93
447.921	9.56
448.131	9.87
448.342	9.17
448.552	12.06
448.763	11.7
448.973	10.05
449.184	9.79
449.394	10.47
449.605	10.58
449.815	12.26
450.026	11.45
450.236	11.68
450.446	11.85
450.657	11.34
450.867	10.33
451.078	11.6
451.288	11.23
451.498	11.06
451.709	11.09
451.919	11.16
452.129	13.46
452.339	11.81
452.55	11.71
452.76	11.57
452.97	10.9
453.18	11.33
453.391	10.74
453.601	12.39
453.811	11.74
454.021	12.28
454.231	11.81
454.442	10.94
454.652	10.29
454.862	10.63
455.072	10.91
455.282	11.04
455.492	10.83
455.702	10.35
455.912	10.18
456.122	11.14
456.332	10.7
456.542	10.32
456.752	11.48
456.962	11.44
457.172	10.24
457.382	9.8
457.592	9.28
457.802	11.33
458.012	11.51
458.222	11.15
458.432	9.87
458.642	12.44
458.852	10.9
459.061	10.02
459.271	10.5
459.481	11.5
459.691	9.84
459.901	11.17
460.11	10.23
460.32	11.01
460.53	10.42
460.74	10.77
460.949	11.92
461.159	10.2
461.369	10.98
461.579	9.84
461.788	12
461.998	11.31
462.208	11.04
462.417	9.9
462.627	10.75
462.836	11.24
463.046	10.3
463.256	10.63
463.465	10.52
463.675	10.51
463.884	11.77
464.094	11.63
464.303	11.38
464.513	10.81
464.722	11.37
464.932	10.73
465.141	10.07
465.351	10.45
465.56	11.6
465.769	11.33
465.979	10.77
466.188	9.92
466.398	10.25
466.607	9.77
466.816	10.35
467.026	10.19
467.235	11.09
467.444	10.91
467.654	11.59
467.863	11.12
468.072	10.85
468.281	11.02
468.491	11.1
468.7	9.74
468.909	10.84
469.118	10.65
469.327	11.93
469.537	11.35
469.746	10.38
469.955	9.79
470.164	11.32
470.373	11.4
470.582	10.26
470.791	9.97
471	10.01
471.209	10.37
471.418	11.15
471.627	11.06
471.837	10.63
472.046	10.24
472.254	10.8
472.463	10.12
472.672	10.8
472.881	10.62
473.09	10
473.299	11.33
473.508	9.93
473.717	11.08
473.926	9.5
474.135	9.89
474.344	9.81
474.552	11.25
474.761	10.45
474.97	10.75
475.179	10.62
475.388	9.79
475.596	10.16
475.805	10.5
476.014	10.98
476.223	9.8
476.431	10.21
476.64	9.8
476.849	10.95
477.057	11.12
477.266	9.91
477.475	10.23
477.683	10.92
477.892	11.32
478.101	10.22
478.309	10.38
478.518	10.1
478.726	10.28
478.935	9.96
479.143	10.36
479.352	10.35
479.56	10.64
479.769	10.12
479.977	10.14
480.186	10.71
480.394	10.48
480.603	10.02
480.811	10.25
481.02	10.25
481.228	10.35
481.436	10.19
481.645	10.45
481.853	10.49
482.061	10.24
482.27	10.02
482.478	10.28
482.686	9.96
482.895	10.83
483.103	10.39
483.311	10.23
483.519	10.28
483.728	10.21
483.936	10.99
484.144	10.07
484.352	10.08
484.56	10.19
484.769	10.78
484.977	9.96
485.185	10.33
485.393	10.2
485.601	10.3
485.809	10.55
486.017	10.52
486.225	10.5
486.433	9.95
486.641	9.97
486.849	10.26
487.057	9.77
487.265	9.75
487.473	9.95
487.681	10.06
487.889	10.39
488.097	10.29
488.305	10.25
488.513	10.28
488.721	9.58
488.929	10.08
489.137	10.19
489.345	10.17
489.552	9.64
489.76	10.06
489.968	10.17
490.176	10.19
490.384	10.47
490.591	10.02
490.799	10.44
491.007	9.78
491.215	9.78
491.422	10.23
491.63	10.14
491.838	10.09
492.045	10.35
492.253	10.8
492.461	10.3
492.668	10.48
492.876	9.83
493.084	10.47
493.291	10.11
493.499	9.84
493.706	10.22
493.914	10.03
494.121	9.49
494.329	10.2
494.536	9.66
494.744	10.08
494.951	9.9
495.159	9.77
495.366	9.96
495.574	10.06
495.781	10.14
495.989	10.41
496.196	10.39
496.403	10.16
496.611	9.82
496.818	10.49
497.025	10.62
497.233	10.1
497.44	10.13
497.647	9.5
497.855	10.36
498.062	10.18
498.269	10.08
498.476	10.4
498.684	9.96
498.891	9.95
499.098	10.06
499.305	10.4
499.512	9.94
499.72	9.98
499.927	10.18
500.134	10
500.341	9.87
500.548	9.67
500.755	10.16
500.962	10.03
501.169	10.54
501.376	10.08
501.583	10.12
501.79	10.23
501.997	10.17
502.204	10.57
502.411	9.79
502.618	10.11
502.825	10.14
503.032	9.95
503.239	10.45
503.446	10.12
503.653	10.12
503.86	10.26
504.067	10.12
504.274	10.07
504.48	10.03
504.687	10.56
504.894	9.81
505.101	9.97
505.308	10.29
505.514	10.3
505.721	10.33
505.928	10.17
506.135	10.44
506.341	10.22
506.548	10.77
506.755	10.89
506.961	9.91
507.168	10.11
507.375	10.24
507.581	10.43
507.788	10.17
507.994	10.51
508.201	10.21
508.408	10.18
508.614	10.38
508.821	10.52
509.027	10.05
509.234	10.93
509.44	10.66
509.647	10.47
509.853	10.4
510.06	10.1
510.266	10.62
510.473	10.45
510.679	10.37
510.885	10.76
511.092	10.8
511.298	10.52
511.504	10.68
511.711	10.68
511.917	10.68
512.123	10.77
512.33	10.92
512.536	11.07
512.742	10.58
512.949	10.92
513.155	10.73
513.361	10.88
513.567	10.89
513.773	10.84
513.98	10.95
514.186	10.86
514.392	11.15
514.598	10.72
514.804	11.15
515.01	11
515.216	10.83
515.423	10.58
515.629	10.94
515.835	10.55
516.041	10.96
516.247	11.34
516.453	11.31
516.659	11.08
516.865	10.9
517.071	11.42
517.277	11.2
517.483	11.29
517.689	11.74
517.895	11.71
518.1	11.87
518.306	11.9
518.512	11.1
518.718	11.44
518.924	11.68
519.13	11.88
519.336	11.76
519.541	11.78
519.747	12.12
519.953	11.83
520.159	12.13
520.365	12.14
520.57	12.23
520.776	12.01
520.982	12.26
521.187	11.82
521.393	12.33
521.599	12.19
521.804	12.51
522.01	12.62
522.216	12.07
522.421	12.04
522.627	12.23
522.832	12.65
523.038	12.09
523.244	12.42
523.449	12.58
523.655	12.4
523.86	12.72
524.066	13.1
524.271	12.88
524.477	12.77
524.682	13.18
524.888	12.76
525.093	12.69
525.298	13.46
525.504	13.15
525.709	13.19
525.914	13.22
526.12	13.05
526.325	13.6
526.531	13.13
526.736	13.2
526.941	13.36
527.146	13.3
527.352	13.47
527.557	13.55
527.762	13.75
527.967	13.36
528.173	13.71
528.378	14.07
528.583	13.7
528.788	13.78
528.993	14.22
529.198	13.96
529.404	13.84
529.609	13.84
529.814	14.22
530.019	14.39
530.224	14.19
530.429	14.14
530.634	14.08
530.839	14.26
531.044	14.08
531.249	14.12
531.454	14.34
531.659	14.39
531.864	14.35
532.069	14.63
532.274	14.24
532.479	14.58
532.684	14.54
532.889	14.54
533.093	14.66
533.298	14.64
533.503	14.39
533.708	14.67
533.913	14.9
534.118	14.53
534.322	14.66
534.527	14.36
534.732	14.67
534.937	14.99
535.141	14.76
535.346	14.65
535.551	14.82
535.756	14.95
535.96	14.82
536.165	15.37
536.369	15.2
536.574	15.03
536.779	14.84
536.983	14.91
537.188	14.87
537.392	14.98
537.597	14.93
537.802	14.75
538.006	15.26
538.211	15.04
538.415	15.02
538.62	15.14
538.824	15.22
539.029	15.14
539.233	14.94
539.437	15.12
539.642	15.14
539.846	15.12
540.051	14.78
540.255	14.99
540.459	15.16
540.664	15.2
540.868	15.61
541.072	15.35
541.277	15.11
541.481	15.15
541.685	15.23
541.889	14.85
542.094	15.22
542.298	15.14
542.502	15.18
542.706	15.26
542.911	15.58
543.115	15.19
543.319	15.52
543.523	15.32
543.727	15.16
543.931	15.35
544.135	15.38
544.339	15.47
544.544	15.17
544.748	15.3
544.952	15.29
545.156	15.31
545.36	15.42
545.564	15.44
545.768	15.23
545.972	14.97
546.176	15.35
546.38	15.48
546.583	15.61
546.787	15.58
546.991	15.42
547.195	15.25
547.399	15.52
547.603	15.6
547.807	15.59
548.011	15.57
548.214	15.44
548.418	15.44
548.622	15.61
548.826	15.45
549.029	15.67
549.233	15.44
549.437	15.41
549.641	15.7
549.844	15.39
550.048	15.87
550.252	15.64
550.455	15.28
550.659	15.63
550.863	15.81
551.066	15.47
551.27	15.35
551.473	15.57
551.677	15.91
551.881	15.77
552.084	15.48
552.288	15.72
552.491	15.77
552.695	15.66
552.898	15.81
553.102	15.58
553.305	15.85
553.508	15.58
553.712	15.47
553.915	15.58
554.119	15.26
554.322	15.75
554.525	15.65
554.729	15.62
554.932	15.48
555.135	15.51
555.339	15.76
555.542	15.19
555.745	15.96
555.949	15.51
556.152	15.54
556.355	15.58
556.558	15.76
556.761	15.68
556.965	15.78
557.168	15.28
557.371	15.64
557.574	15.45
557.777	16.03
557.98	15.84
558.184	15.51
558.387	15.19
558.59	15.7
558.793	15.51
558.996	15.2
559.199	15.6
559.402	15.64
559.605	15.35
559.808	15.52
560.011	15.42
560.214	15.41
560.417	15.4
560.62	15.21
560.823	15.25
561.026	15.17
561.228	15.52
561.431	15.5
561.634	15.37
561.837	14.93
562.04	15.24
562.243	14.67
562.445	15.11
562.648	15.09
562.851	14.87
563.054	15.17
563.256	14.86
563.459	15.09
563.662	14.81
563.865	15.1
564.067	14.73
564.27	14.81
564.473	14.74
564.675	14.5
564.878	14.64
565.081	14.61
565.283	14.96
565.486	14.34
565.688	14.43
565.891	14.54
566.093	14.48
566.296	14.82
566.498	14.74
566.701	14.31
566.903	14.13
567.106	13.98
567.308	14.34
567.511	14.33
567.713	14.37
567.916	14.18
568.118	14.31
568.32	13.95
568.523	13.89
568.725	14.11
568.927	13.75
569.13	14.04
569.332	14.19
569.534	14.15
569.737	13.41
569.939	13.56
570.141	13.89
570.343	13.81
570.546	13.8
570.748	13.93
570.95	13.56
571.152	14.02
571.354	13.9
571.557	13.7
571.759	13.84
571.961	13.54
572.163	13.53
572.365	13.45
572.567	13.63
572.769	13.66
572.971	13.76
573.173	13.6
573.375	13.16
573.577	13.4
573.779	13.26
573.981	13.33
574.183	13.3
574.385	13.28
574.587	13.18
574.789	13.33
574.991	13.11
575.193	12.94
575.395	13.02
575.596	13.35
575.798	13.34
576	13.48
576.202	13.37
576.404	13.24
576.605	13.04
576.807	13.28
577.009	13.15
577.211	13.15
577.412	12.96
577.614	13.05
577.816	12.72
578.018	13.14
578.219	12.64
578.421	13.23
578.623	13.03
578.824	13.15
579.026	12.82
579.227	12.64
579.429	12.8
579.631	12.96
579.832	12.8
580.034	13.06
580.235	12.72
580.437	12.81
580.638	12.88
580.84	12.99
581.041	13.16
581.242	12.96
581.444	12.86
581.645	12.69
581.847	12.78
582.048	12.58
582.25	12.24
582.451	12.36
582.652	12.77
582.854	12.84
583.055	12.44
583.256	12.77
583.457	12.79
583.659	12.54
583.86	12.48
584.061	12.76
584.262	12.55
584.464	12.89
584.665	12.59
584.866	12.75
585.067	12.37
585.268	12.46
585.47	12.64
585.671	12.8
585.872	12.86
586.073	12.99
586.274	12.51
586.475	12.53
586.676	12.97
586.877	12.37
587.078	12.66
587.279	12.59
587.48	12.54
587.681	12.29
587.882	12.57
588.083	12.35
588.284	12.54
588.485	12.35
588.686	12.24
588.887	12.27
589.088	12.21
589.288	12.34
589.489	12.45
589.69	12.33
589.891	12.44
590.092	12.15
590.292	12.7
590.493	12.25
590.694	12.8
590.895	12.39
591.095	12.18
591.296	12.21
591.497	12.67
591.698	12.06
591.898	12.14
592.099	12.21
592.299	12.39
592.5	12.23
592.701	12.65
592.901	12.09
593.102	12.35
593.302	12.3
593.503	12.47
593.704	12.12
593.904	12.35
594.105	12.23
594.305	12.07
594.506	12.3
594.706	12.12
594.906	12.28
595.107	12.5
595.307	12.23
595.508	12.15
595.708	12.29
595.908	12.41
596.109	11.98
596.309	12.39
596.51	12.42
596.71	12.41
596.91	12.59
597.11	12.17
597.311	12.23
597.511	12.5
597.711	12.45
597.911	12.22
598.112	12.35
598.312	12.09
598.512	12.56
598.712	12.2
598.912	12.25
599.112	12.11
599.313	12.25
599.513	12.38
599.713	12.29
599.913	12.06
600.113	12.19
600.313	12.12
600.513	12.1
600.713	12.57
600.913	12.58
601.113	12.45
601.313	12.12
601.513	12.13
601.713	11.78
601.913	12.31
602.113	12.43
602.313	12.39
602.513	12.21
602.712	12.36
602.912	12.36
603.112	12.38
603.312	12.34
603.512	12.12
603.712	12.46
603.911	12.16
604.111	12.47
604.311	12.42
604.511	12.36
604.71	12.09
604.91	12.39
605.11	12.38
605.309	12.35
605.509	12.61
605.709	12.58
605.908	12.01
606.108	12.35
606.308	12.03
606.507	12.25
606.707	12.4
606.906	12.25
607.106	12.51
607.305	12.09
607.505	12.2
607.704	12.04
607.904	12.23
608.103	12.52
608.303	12.45
608.502	12.54
608.702	12.04
608.901	12.28
609.1	12.28
609.3	12.27
609.499	12.24
609.698	12.23
609.898	12.29
610.097	12.43
610.296	11.88
610.496	12
610.695	12.28
610.894	12.03
611.094	11.98
611.293	12.35
611.492	12.1
611.691	12.05
611.89	12.4
612.09	12.28
612.289	12.12
612.488	12.23
612.687	11.94
612.886	12.33
613.085	12.38
613.284	12.28
613.483	11.95
613.682	11.95
613.881	12.28
614.08	11.85
614.279	11.89
614.478	12.25
614.677	12
614.876	12.05
615.075	11.79
615.274	12.19
615.473	12.15
615.672	11.82
615.871	11.97
616.07	11.85
616.269	12.06
616.468	12.04
616.666	11.93
616.865	12.2
617.064	12.03
617.263	11.81
617.462	11.96
617.66	12.31
617.859	12.07
618.058	12.26
618.256	11.7
618.455	11.75
618.654	12.03
618.852	12.17
619.051	11.9
619.25	11.83
619.448	12.04
619.647	12.36
619.846	11.53
620.044	11.91
620.243	11.96
620.441	12.01
620.64	12.19
620.838	12.14
621.037	11.78
621.235	11.72
621.434	11.71
621.632	12.02
621.831	11.62
622.029	12
622.227	11.86
622.426	12.1
622.624	11.79
622.823	11.81
623.021	12
623.219	11.86
623.418	11.9
623.616	11.56
623.814	11.55
624.012	11.71
624.211	12.03
624.409	11.91
624.607	11.94
624.805	11.98
625.004	12.02
625.202	11.7
625.4	11.99
625.598	12
625.796	11.84
625.994	11.68
626.192	11.91
626.391	11.61
626.589	11.53
626.787	11.64
626.985	11.69
627.183	11.83
627.381	11.82
627.579	12.12
627.777	11.76
627.975	11.61
628.173	11.92
628.371	11.63
628.569	11.52
628.767	11.99
628.964	11.91
629.162	11.72
629.36	11.96
629.558	11.84
629.756	11.85
629.954	11.79
630.151	11.77
630.349	11.4
630.547	11.52
630.745	11.42
630.943	12.09
631.14	11.4
631.338	11.63
631.536	11.7
631.733	11.78
631.931	11.66
632.129	11.59
632.326	11.59
632.524	11.63
632.722	11.63
632.919	11.46
633.117	11.85
633.314	11.55
633.512	11.84
633.709	11.7
633.907	11.72
634.104	11.53
634.302	11.83
634.499	11.6
634.697	11.46
634.894	11.87
635.092	11.67
635.289	11.65
635.487	11.42
635.684	11.61
635.881	11.37
636.079	11.83
636.276	11.51
636.473	11.78
636.671	11.24
636.868	11.56
637.065	11.52
637.263	11.43
637.46	11.37
637.657	11.67
637.854	11.59
638.051	11.47
638.249	11.49
638.446	11.35
638.643	11.48
638.84	11.62
639.037	11.63
639.234	11.52
639.431	11.55
639.629	11.46
639.826	11.52
640.023	11.56
640.22	11.27
640.417	11.43
640.614	11.31
640.811	11.38
641.008	11.67
641.205	11.38
641.402	11.26
641.599	11.11
641.795	10.97
641.992	11.28
642.189	11.23
642.386	10.97
642.583	11.28
642.78	11.39
642.977	11.2
643.173	11.29
643.37	11.5
643.567	11.22
643.764	11.13
643.96	11.21
644.157	11.25
644.354	11.29
644.551	11.2
644.747	11.13
644.944	11.12
645.141	10.78
645.337	11.12
645.534	11.15
645.731	11.27
645.927	10.96
646.124	11.23
646.32	10.82
646.517	10.82
646.713	10.7
646.91	10.91
647.106	10.74
647.303	10.86
647.499	10.87
647.696	10.82
647.892	10.88
648.089	10.77
648.285	10.83
648.482	10.46
648.678	10.85
648.874	10.56
649.071	10.91
649.267	10.89
649.463	10.64
649.66	10.98
649.856	10.91
650.052	10.87
650.248	10.65
650.445	11.05
650.641	10.56
650.837	10.83
651.033	10.7
651.23	11.13
651.426	10.61
651.622	10.7
651.818	10.9
652.014	10.91
652.21	10.72
652.406	11.15
652.602	10.23
652.798	10.77
652.995	10.86
653.191	10.52
653.387	10.7
653.583	10.96
653.779	10.52
653.975	10.67
654.17	10.68
654.366	10.62
654.562	10.62
654.758	10.41
654.954	10.44
655.15	10.68
655.346	10.46
655.542	10.65
655.738	10.51
655.933	10.56
656.129	10.74
656.325	10.53
656.521	10.85
656.717	10.8
656.912	10.3
657.108	10.33
657.304	10.65
657.499	10.73
657.695	10.57
657.891	10.51
658.086	10.26
658.282	10.52
658.478	10.6
658.673	10.47
658.869	10.47
659.064	10.69
659.26	10.43
659.456	10.28
659.651	10.41
659.847	10.46
660.042	10.51
660.238	10.19
660.433	10.38
660.629	10.32
660.824	10.48
661.019	10.39
661.215	10.54
661.41	10.3
661.606	10.48
661.801	10.49
661.996	10.69
662.192	10.31
662.387	10.2
662.582	10.44
662.777	10.29
662.973	10.59
663.168	10.11
663.363	10.36
663.558	10.28
663.754	10.17
663.949	10.35
664.144	10.16
664.339	10.21
664.534	10.33
664.729	10.5
664.925	10.16
665.12	10.43
665.315	10.29
665.51	9.95
665.705	10.6
665.9	10.31
666.095	10.18
666.29	10.27
666.485	10.32
666.68	9.92
666.875	10.23
667.07	10.22
667.265	10.08
667.46	10.14
667.655	10.11
667.849	9.95
668.044	10.01
668.239	10.28
668.434	10.55
668.629	10.19
668.824	10.29
669.018	10.13
669.213	10.42
669.408	10.25
669.603	10.38
669.797	10.38
669.992	9.98
670.187	10.28
670.382	10.12
670.576	10.06
670.771	10.11
670.966	10.33
671.16	10.47
671.355	10.09
671.549	10.49
671.744	10.18
671.938	9.91
672.133	10.37
672.328	10.29
672.522	10.51
672.717	10.28
672.911	10.25
673.106	10.11
673.3	10.25
673.494	10.29
673.689	10.23
673.883	10.1
674.078	9.91
674.272	10.39
674.466	10.29
674.661	9.94
674.855	10.09
675.049	10.28
675.244	10.17
675.438	10.26
675.632	10.04
675.826	10
676.021	10.11
676.215	10.1
676.409	10.34
676.603	9.92
676.797	10
676.992	9.96
677.186	10.17
677.38	10.12
677.574	10.12
677.768	10.23
677.962	9.94
678.156	10.26
678.35	10.02
678.544	10.26
678.738	10.18
678.932	10.19
679.126	10.2
679.32	10.36
679.514	10.3
679.708	10.1
679.902	10.34
680.096	10.22
680.29	10.27
680.484	10.12
680.678	10.13
680.872	10.24
681.065	10.08
681.259	10.46
681.453	10.33
681.647	10.28
681.841	10.39
682.034	10.27
682.228	10.34
682.422	10.2
682.616	10.28
682.809	10.13
683.003	10.34
683.197	10.23
683.39	10.03
683.584	10.43
683.777	10.44
683.971	10.09
684.165	10.1
684.358	10.24
684.552	10.3
684.745	10.43
684.939	10.3
685.132	10.62
685.326	10.61
685.519	10.33
685.713	10.12
685.906	10.68
686.1	10.5
686.293	10.5
686.486	10.57
686.68	10.61
686.873	10.63
687.067	10.67
687.26	10.67
687.453	10.33
687.647	10.41
687.84	10.59
688.033	10.32
688.226	10.57
688.42	10.5
688.613	10.51
688.806	10.66
688.999	10.49
689.192	10.51
689.386	10.53
689.579	10.24
689.772	10.61
689.965	10.37
690.158	10.69
690.351	10.64
690.544	10.72
690.737	10.39
690.93	10.76
691.123	10.3
691.316	10.84
691.509	10.71
691.702	10.7
691.895	10.42
692.088	10.74
692.281	10.72
692.474	10.83
692.667	11.04
692.86	10.86
693.053	10.98
693.246	10.87
693.438	11.08
693.631	11.01
693.824	10.72
694.017	10.57
694.21	11.04
694.402	11.07
694.595	11.33
694.788	11.14
694.981	11.26
695.173	11.24
695.366	11.4
695.559	11.53
695.751	11.48
695.944	12.1
696.137	11.53
696.329	11.54
696.522	12.04
696.714	12.22
696.907	11.93
697.099	11.98
697.292	12.34
697.484	12.16
697.677	12.58
697.869	12.64
698.062	12.69
698.254	12.73
698.447	12.88
698.639	13
698.832	13.35
699.024	13.04
699.216	13.41
699.409	13.68
699.601	13.53
699.793	13.49
699.986	14.06
700.178	13.89
700.37	14.21
700.563	14.54
700.755	14.46
700.947	14.68
701.139	14.79
701.331	15.01
701.524	15.19
701.716	14.98
701.908	15.27
702.1	15.47
702.292	15.85
702.484	15.77
702.676	16.13
702.868	16.19
703.06	16.57
703.252	16.48
703.445	16.41
703.637	17.1
703.829	16.75
704.02	17.49
704.212	17.17
704.404	17.43
704.596	17.03
704.788	17.56
704.98	17.9
705.172	18.48
705.364	18.14
705.556	18.52
705.748	18.34
705.939	18.71
706.131	18.66
706.323	19.27
706.515	19.3
706.707	19.4
706.898	19.56
707.09	20.22
707.282	20.47
707.473	20.34
707.665	20.04
707.857	20.1
708.048	20.61
708.24	20.96
708.432	20.55
708.623	21.1
708.815	21.47
709.006	21.63
709.198	21.82
709.389	22.19
709.581	21.83
709.773	22.55
709.964	22.18
710.155	22.79
710.347	24
710.538	22.89
710.73	22.76
710.921	23.29
711.113	23.3
711.304	23.74
711.495	24
711.687	23.86
711.878	24.38
712.069	24.27
712.261	24.66
712.452	25.04
712.643	24.76
712.834	25.25
713.026	25.78
713.217	25.66
713.408	25.32
713.599	25.62
713.79	26.35
713.982	26.13
714.173	26.41
714.364	26.6
714.555	27.45
714.746	27.35
714.937	27.33
715.128	27.53
715.319	27.62
715.51	28.1
715.701	27.85
715.892	28.14
716.083	28.36
716.274	28.8
716.465	28.82
716.656	29.36
716.847	29.31
717.038	29.16
717.229	29.3
717.42	29.88
717.611	30.1
717.801	30.38
717.992	29.96
718.183	30.47
718.374	30.56
718.565	31.59
718.755	31.24
718.946	30.84
719.137	31.91
719.328	31.25
719.518	32.23
719.709	31.79
719.9	32.56
720.09	32.41
720.281	32.42
720.472	32.99
720.662	33.38
720.853	33.74
721.043	33.14
721.234	33.56
721.424	33.94
721.615	34.31
721.806	34.3
721.996	34.08
722.186	35.05
722.377	34.49
722.567	34.84
722.758	35.35
722.948	35.21
723.139	36.05
723.329	35.86
723.519	35.66
723.71	36.64
723.9	36.37
724.09	36.92
724.281	37.38
724.471	37.59
724.661	37.9
724.852	38.3
725.042	38.17
725.232	38.61
725.422	38.69
725.612	38.36
725.803	38.67
725.993	38.92
726.183	38.94
726.373	39.76
726.563	39.52
726.753	39.73
726.943	40.96
727.133	40.56
727.323	40.73
727.513	39.93
727.703	41.18
727.893	41.31
728.083	41.17
728.273	41.13
728.463	41.34
728.653	42.44
728.843	42.21
729.033	42.14
729.223	42.18
729.413	42.76
729.603	42.89
729.793	43.15
729.982	43.33
730.172	43.53
730.362	43.69
730.552	43.44
730.742	44.27
730.931	44.45
731.121	45.35
731.311	44.8
731.5	44.89
731.69	44.89
731.88	45.31
732.069	45.66
732.259	45.44
732.449	45.99
732.638	46.53
732.828	46.2
733.017	46.12
733.207	46.34
733.397	46.92
733.586	47.41
733.776	46.66
733.965	47.74
734.155	47.15
734.344	48.03
734.533	47.66
734.723	47.47
734.912	48.79
735.102	48.58
735.291	47.96
735.48	48.98
735.67	49.12
735.859	48.94
736.048	49.66
736.238	48.59
736.427	49.83
736.616	49.24
736.806	49.66
736.995	50.29
737.184	49.89
737.373	50.1
737.562	50.59
737.752	51.05
737.941	50.05
738.13	50.61
738.319	50.73
738.508	51.33
738.697	50.67
738.886	51.36
739.075	51.18
739.264	51.59
739.453	51.6
739.642	51.36
739.831	52.08
740.02	52.06
740.209	52.11
740.398	51.96
740.587	52.34
740.776	52.73
740.965	52.38
741.154	52.84
741.343	52.9
741.532	53.25
741.72	53.37
741.909	53.12
742.098	53.11
742.287	53.64
742.476	53.59
742.664	53.36
742.853	53.75
743.042	54.21
743.231	53.69
743.419	53.86
743.608	54.44
743.797	54.21
743.985	54.54
744.174	54.59
744.362	54.52
744.551	55.02
744.74	54.23
744.928	54.48
745.117	54.16
745.305	55.01
745.494	55.55
745.682	55.13
745.871	55.31
746.059	55.72
746.248	55.51
746.436	55.14
746.625	55.21
746.813	55.66
747.001	56.25
747.19	56.38
747.378	55.97
747.566	55.85
747.755	56.56
747.943	56.84
748.131	55.94
748.32	56.31
748.508	56.42
748.696	56.47
748.884	57.18
749.072	56.16
749.261	57.16
749.449	56.3
749.637	56.49
749.825	56.42
750.013	57.21
750.201	57.02
750.389	57.11
750.578	57.15
750.766	57.75
750.954	56.88
751.142	57.34
751.33	57.2
751.518	57.92
751.706	56.75
751.894	57.4
752.082	56.74
752.27	57.08
752.457	57.03
752.645	57.49
752.833	57.51
753.021	57.3
753.209	58.3
753.397	57.36
753.585	57.55
753.772	58.18
753.96	58.22
754.148	58.41
754.336	58.41
754.524	58.5
754.711	57.86
754.899	57.54
755.087	58.14
755.274	58.98
755.462	57.23
755.65	58.01
755.837	58.36
756.025	58.41
756.212	57.78
756.4	58.38
756.588	57.98
756.775	57.93
756.963	58.57
757.15	58.41
757.338	59.18
757.525	58.3
757.713	58.4
757.9	57.53
758.088	58.63
758.275	58.39
758.462	57.77
758.65	58.75
758.837	58.81
759.024	57.72
759.212	57.96
759.399	59.17
759.586	58.58
759.774	58.51
759.961	59.09
760.148	58.64
760.335	58.73
760.523	58.67
760.71	58.84
760.897	57.68
761.084	58.37
761.271	58.78
761.459	58.61
761.646	59.2
761.833	59.55
762.02	59.17
762.207	59.34
762.394	58.71
762.581	59.04
762.768	58.79
762.955	59.29
763.142	59.14
763.329	58.32
763.516	58.58
763.703	58.97
763.89	58.59
764.077	58.41
764.264	59.24
764.451	58.67
764.637	59.04
764.824	58.37
765.011	59.58
765.198	58.65
765.385	59
765.572	58.1
765.758	59.18
765.945	58.66
766.132	59.47
766.319	59.27
766.505	59.05
766.692	59.07
766.879	58.48
767.065	59.08
767.252	58.51
767.439	58.84
767.625	59.08
767.812	58.82
767.998	59.24
768.185	59.65
768.371	58.77
768.558	59.36
768.744	59.06
768.931	58.74
769.117	59.6
769.304	58.36
769.49	59.11
769.677	58.28
769.863	58.62
770.05	58.31
770.236	58.06
770.422	59.28
770.609	59.18
770.795	58.58
770.981	59.95
771.168	58.79
771.354	58.71
771.54	59.26
771.726	59.13
771.913	59.28
772.099	58.95
772.285	58.68
772.471	58.85
772.657	58.34
772.843	58.39
773.03	59.64
773.216	59.04
773.402	58.68
773.588	59.05
773.774	59.46
773.96	57.95
774.146	59
774.332	58.98
774.518	58.56
774.704	58.77
774.89	58.77
775.076	59.18
775.262	59.13
775.448	58.52
775.634	58.92
775.82	58.65
776.006	58.98
776.191	59.15
776.377	58.95
776.563	59.01
776.749	58.37
776.935	58.31
777.12	58.01
777.306	58.97
777.492	58.52
777.678	59.39
777.863	58.93
778.049	58.88
778.235	58.6
778.42	58.95
778.606	59.1
778.792	58.7
778.977	58.88
779.163	57.79
779.348	58.95
779.534	58.76
779.72	58.56
779.905	58.55
780.091	59.18
780.276	59.03
780.462	58.79
780.647	58.28
780.832	59.05
781.018	59.56
781.203	60.14
781.389	58.81
781.574	59.66
781.759	59.93
781.945	59.14
782.13	58.86
782.315	58.75
782.501	58.3
782.686	59.41
782.871	59.28
783.057	58.6
783.242	58.56
783.427	58.52
783.612	58.96
783.797	58.15
783.983	59.18
784.168	59.56
784.353	59.11
784.538	59.02
784.723	59.9
784.908	59.11
785.093	59.19
785.278	59.28
785.463	59.1
785.648	58.03
785.833	59.29
786.018	59.09
786.203	59.32
786.388	59.61
786.573	58.98
786.758	58.97
786.943	59.35
787.128	59.17
787.313	59.23
787.498	58.78
787.682	59.84
787.867	58.47
788.052	59.28
788.237	58.95
788.422	60.2
788.606	58.96
788.791	59.37
788.976	59.3
789.161	58.47
789.345	58.26
789.53	58.03
789.715	58.96
789.899	58.89
790.084	58.74
790.268	58.6
790.453	58.92
790.638	58.42
790.822	59.73
791.007	59.12
791.191	58.76
791.376	59.13
791.56	58.82
791.745	58.27
791.929	58.95
792.114	58.95
792.298	58.17
792.482	58.55
792.667	58.49
792.851	58.51
793.036	59.06
793.22	58.46
793.404	58.48
793.589	58.58
793.773	58.47
793.957	59.92
794.141	58.97
794.326	59.47
794.51	58.97
794.694	58.94
794.878	59.07
795.062	59.35
795.247	59.18
795.431	58.64
795.615	59.48
795.799	58.65
795.983	58.62
796.167	59.58
796.351	58.7
796.535	58.73
796.719	58.25
796.903	58.73
797.087	58.76
797.271	57.98
797.455	58.45
797.639	58.15
797.823	59.42
798.007	59.06
798.191	58.7
798.375	59.7
798.559	59.12
798.743	59.06
798.926	58.76
799.11	58.3
799.294	58.56
799.478	58.67
799.662	59.83
799.845	59.65
800.029	59.3
800.213	59.27
800.396	58.11
800.58	58.85
800.764	58.82
800.947	58.74
801.131	58.75
801.315	59.3
801.498	58.96
801.682	58.77
801.865	59.59
802.049	58.37
802.233	57.73
802.416	59.7
802.6	59.24
802.783	59.13
802.966	58.92
803.15	59.24
803.333	59.34
803.517	58.11
803.7	59.06
803.884	58.98
804.067	58.6
804.25	58.87
804.434	57.62
804.617	59.58
804.8	59.89
804.984	58.79
805.167	58.94
805.35	58.96
805.533	59.66
805.717	59.45
805.9	58.56
806.083	59.73
806.266	59.1
806.449	59.85
806.632	58.67
806.815	59.11
806.999	58.28
807.182	58.46
807.365	57.95
807.548	58.37
807.731	58.98
807.914	58.44
808.097	59.15
808.28	59.19
808.463	58.49
808.646	59.67
808.829	59.11
809.012	58.85
809.194	59.63
809.377	58.46
809.56	57.42
809.743	58.49
809.926	58.6
810.109	58.69
810.292	58.84
810.474	59.07
810.657	59.63
810.84	57.75
811.023	59.61
811.205	58.48
811.388	59.02
811.571	58.88
811.753	58.59
811.936	58.49
812.119	58.76
812.301	59.45
812.484	59.3
812.666	58.89
812.849	58.05
813.032	58.55
813.214	58.23
813.397	57.76
813.579	59.41
813.762	57.95
813.944	58.37
814.127	59.49
814.309	58.96
814.491	58.6
814.674	58.73
814.856	57.79
815.039	58.63
815.221	59.82
815.403	58.73
815.586	58.96
815.768	59.57
815.95	59.45
816.132	58.93
816.315	58.21
816.497	58.58
816.679	57.65
816.861	58.74
817.044	58.84
817.226	58.32
817.408	58.7
817.59	58.39
817.772	59.2
817.954	58.66
818.136	59.2
818.318	58.35
818.5	57.13
818.682	59.71
818.864	57.87
819.046	58.43
819.228	58.54
819.41	59.1
819.592	58.42
819.774	58.63
819.956	59.29
820.138	58.26
820.32	59.32
820.502	58.76
820.684	57.53
820.866	57.97
821.047	59
821.229	58.69
821.411	59.24
821.593	58.58
821.774	57.69
821.956	59.08
822.138	58.45
822.32	59.99
822.501	59.1
822.683	58.67
822.865	59.52
823.046	57.76
823.228	58.83
823.409	58.46
823.591	58.74
823.773	60.01
823.954	58.38
824.136	58.68
824.317	59.19
824.499	58.74
824.68	58.72
824.862	59.66
825.043	57.84
825.224	59.17
825.406	57.79
825.587	59.27
825.769	57.9
825.95	58.11
826.131	58.51
826.313	58.65
826.494	59.74
826.675	58.95
826.857	57.77
827.038	58.39
827.219	58.81
827.4	59.46
827.582	58.73
827.763	59.71
827.944	59.8
828.125	58.42
828.306	59.21
828.487	58.23
828.668	59.12
828.85	59.35
829.031	58.75
829.212	57.18
829.393	58.62
829.574	58.09
829.755	58.88
829.936	58.95
830.117	59.98
830.298	59.19
830.479	58.71
830.66	59.13
830.84	59.65
831.021	57.66
831.202	57.34
831.383	58.82
831.564	58.11
831.745	58.23
831.926	58.31
832.106	58.4
832.287	58.78
832.468	58.75
832.649	58.14
832.829	58.01
833.01	58.6
833.191	59.39
833.371	59.43
833.552	58.53
833.733	57.79
833.913	59.15
834.094	57.7
834.275	58.57
834.455	59.14
834.636	58.18
834.816	58.78
834.997	59.28
835.177	58.75
835.358	59.13
835.538	59.29
835.719	58.88
835.899	59.76
836.079	58.23
836.26	58.61
836.44	57.89
836.621	59.56
836.801	58.46
836.981	59.05
837.162	59.51
837.342	57.91
837.522	58.77
837.703	58.23
837.883	57.31
838.063	58.71
838.243	59.34
838.423	58.48
838.604	59.17
838.784	57.77
838.964	58.73
839.144	57.87
839.324	59.07
839.504	59.08
839.684	58.49
839.864	59.07
840.044	58.91
840.224	58.18
840.404	57.75
840.584	58.81
840.764	59.67
840.944	58.56
841.124	57.69
841.304	57.99
841.484	59.81
841.664	58.24
841.844	58.44
842.024	58.18
842.204	58.37
842.384	58.72
842.563	59.77
842.743	58.49
842.923	58.14
843.103	58.57
843.282	57.2
843.462	58.46
843.642	59.39
843.822	58.39
844.001	58.69
844.181	58.32
844.36	58.23
844.54	58.7
844.72	58.2
844.899	58.79
845.079	57.88
845.258	59.34
845.438	58.44
845.617	57.61
845.797	59.98
845.976	58.65
846.156	59.29
846.335	57.9
846.515	58.88
846.694	56.99
846.874	58.74
847.053	58.53
847.232	58.85
847.412	57.84
847.591	58.66
847.77	59
847.95	58.21
848.129	58.15
848.308	57.74
848.488	58.07
848.667	57.9
848.846	58.07
849.025	59.13
849.204	58.41
849.384	58.93
849.563	59.53
849.742	58.97
849.921	56.96
850.1	57.82
850.279	58.45
850.458	58.1
850.637	57.92
850.816	59.17
850.995	59.5
851.174	58.92
851.353	58.88
851.532	59.2
851.711	59.19
851.89	57.82
852.069	58.91
852.248	59.19
852.427	58.34
852.606	59.98
852.784	59.77
852.963	58.02
853.142	59.28
853.321	60.09
853.5	58.72
853.678	59.31
853.857	57.97
854.036	58.68
854.214	59.39
854.393	59.39
854.572	58.46
854.75	58.44
854.929	58.63
855.108	58.57
855.286	58.46
855.465	58.47
855.644	58.16
855.822	57.89
856.001	58.85
856.179	58.92
856.358	58.01
856.536	58.21
856.715	59.68
856.893	59.01
857.071	58.23
857.25	59.19
857.428	58.02
857.607	59.44
857.785	59.19
857.963	59.63
858.142	59.56
858.32	58.17
858.498	58.19
858.677	58.69
858.855	58.74
859.033	59.69
859.211	59.13
859.389	59.6
859.568	57.99
859.746	58.26
859.924	59.24
860.102	59.12
860.28	59.27
860.458	58.13
860.636	59.4
860.815	58.83
860.993	58.69
861.171	57.72
861.349	56.8
861.527	57.21
861.705	58.59
861.883	58.22
862.061	58.24
862.238	58.08
862.416	59.02
862.594	58.88
862.772	59.17
862.95	60.16
863.128	58.31
863.306	59.97
863.484	59.82
863.661	57.97
863.839	59.91
864.017	59.26
864.195	58.8
864.372	60.34
864.55	58.86
864.728	59.01
864.905	58.03
865.083	59.85
865.261	58.65
865.438	59.34
865.616	58.18
865.794	58.35
865.971	58.45
866.149	58.05
866.326	58.42
866.504	58.87
866.681	57.57
866.859	59.31
867.036	58.79
867.214	58.82
867.391	57.73
867.568	59.3
867.746	58.52
867.923	58.34
868.101	57.98
868.278	58.8
868.455	58.42
868.633	58.09
868.81	59.65
868.987	58.31
869.164	58.82
869.342	58.47
869.519	58.76
869.696	58.5
869.873	58.96
870.051	56.84
870.228	58.04
870.405	60.1
870.582	59.89
870.759	60.66
870.936	59.01
871.113	57.16
871.29	59.6
871.467	58.75
871.644	57.67
871.821	58.33
871.998	58.52
872.175	58.71
872.352	58.56
872.529	57.8
872.706	58.01
872.883	58.47
873.06	57.21
873.237	59.04
873.414	58.24
873.59	59.21
873.767	57.47
873.944	58.05
874.121	58.76
874.298	58.86
874.474	58.26
874.651	59.24
874.828	59.45
875.005	57.73
875.181	58.94
875.358	58.63
875.535	59.55
875.711	59.06
875.888	59.63
876.064	58.53
876.241	58.47
876.417	58.35
876.594	59.59
876.771	57.38
876.947	57.88
877.124	59.55
877.3	60.58
877.476	60.14
877.653	58.2
877.829	59.34
878.006	58.26
878.182	58.04
878.358	57.58
878.535	58.44
878.711	57.65
878.887	59.03
879.064	59.66
879.24	59.35
879.416	57.18
879.593	58.19
879.769	58.82
879.945	60.33
880.121	59.66
880.297	59.01
880.473	56.3
880.65	58.41
880.826	59.86
881.002	58.2
881.178	59.33
881.354	57.07
881.53	59.22
881.706	58.43
881.882	58.44
882.058	59.55
882.234	58.74
882.41	60.18
882.586	58.56
882.762	60.37
882.938	57.26
883.114	59.11
883.29	57.96
883.466	58.01
883.641	61.3
883.817	57.85
883.993	58.57
884.169	58.63
884.345	58.3
884.52	59.96
884.696	60.12
884.872	57.12
885.048	59.99
885.223	59.52
885.399	56.68
885.575	58.8
885.75	57.96
885.926	58.7
886.101	59.4
886.277	60.51
886.453	58.73
886.628	57.84
886.804	58.27
886.979	59.81
887.155	56.76
887.33	58.85
887.506	59.05
887.681	59.21
887.856	59.02
888.032	58.3
888.207	60.09
888.383	58.94
888.558	57.48
888.733	58.83
888.909	60.68
889.084	59.7
889.259	57.66
889.435	58.07
889.61	58.97
889.785	56.23
889.96	56.9
890.135	58.06
890.311	59.41
890.486	59.31
890.661	59.45
890.836	57.91
891.011	59.77
891.186	59.64
891.361	57.99
891.536	58.59
891.712	58.27
891.887	58.76
892.062	58.62
892.237	59.69
892.412	57.47
892.587	57.44
892.761	57.17
892.936	59.41
893.111	59.38
893.286	60.79
893.461	57.55
893.636	59.9
893.811	58.29
893.986	56.43
894.16	58.83
894.335	57.93
894.51	60.47
894.685	57.5
894.859	58.49
895.034	58.4
895.209	61.07
895.383	59.45
895.558	55.5
895.733	59.52
895.907	57.72
896.082	58.87
896.257	58.02
896.431	57.69
896.606	57.79
896.78	58.49
896.955	57.07
897.129	58.09
897.304	59.79
897.478	59.02
897.653	58.47
897.827	58.68
898.002	60.09
898.176	59.88
898.35	61.1
898.525	58.63
898.699	58.61
898.873	58.7
899.048	60.32
899.222	57.62
899.396	59.45
899.571	58.29
899.745	59.93
899.919	56.98
900.093	59.19
900.267	58.97
900.442	57.67
900.616	57.65
900.79	58.27
900.964	59.36
901.138	59.31
901.312	57.69
901.486	58.63
901.66	60.2
901.834	60.79
902.008	59.9
902.182	58.76
902.356	58.58
902.53	56.35
902.704	58.21
902.878	59.66
903.052	57.29
903.226	57.45
903.4	57.09
903.574	59.53
903.748	58.62
903.921	59.78
904.095	59.54
904.269	57.41
904.443	56.87
904.617	59.25
904.79	58.04
904.964	58.88
905.138	59.24
905.311	58.36
905.485	59.22
905.659	60.54
905.832	59.07
906.006	58.24
906.179	59.22
906.353	59.41
906.527	56.34
906.7	57.55
906.874	57.91
907.047	61.06
907.221	60.29
907.394	58.79
907.568	58.71
907.741	60.17
907.914	57.38
908.088	59.69
908.261	57.45
908.435	58.15
908.608	60.04
908.781	56.71
908.955	61.95
909.128	56.84
909.301	58.34
909.474	57.77
909.648	59.19
909.821	58.94
909.994	59.77
910.167	59.79
910.34	57.72
910.514	59.46
910.687	60.03
910.86	59.63
911.033	58.45
911.206	60.19
911.379	57.94
911.552	59.19
911.725	58.21
911.898	58.56
912.071	58.39
912.244	58.48
912.417	58.44
912.59	58.78
912.763	59.13
912.936	59.8
913.109	60.51
913.282	59.45
913.455	59.32
913.627	59.2
913.8	59.14
913.973	58.49
914.146	58.3
914.319	59.47
914.491	60.11
914.664	59.92
914.837	58.61
915.009	57.47
915.182	57.63
915.355	57.77
915.527	59.62
915.7	58.42
915.873	58.98
916.045	58.15
916.218	59.05
916.39	57.91
916.563	58.12
916.735	56.01
916.908	59.92
917.08	57.32
917.253	60.18
917.425	58.87
917.598	59.71
917.77	57.47
917.943	59.8
918.115	57.84
918.287	58.82
918.46	58.67
918.632	58.06
918.804	59.53
918.977	61.04
919.149	61.28
919.321	58.44
919.493	59.76
919.666	58.14
919.838	57.51
920.01	58.36
920.182	58.09
920.354	56.73
920.526	58.74
920.699	60.73
920.871	57.88
921.043	56.09
921.215	59.1
921.387	57.85
921.559	57.6
921.731	59.85
921.903	58.19
922.075	57.96
922.247	60.14
922.419	58.33
922.591	57.18
922.762	57.39
922.934	59.1
923.106	60.63
923.278	59
923.45	58.7
923.622	58.63
923.794	61.59
923.965	56.69
924.137	62.45
924.309	57.59
924.481	59.3
924.652	60.27
924.824	57.92
924.996	59.34
925.167	59.17
925.339	58.03
925.51	57.14
925.682	62.28
925.854	60.25
926.025	59.11
926.197	57.53
926.368	61.18
926.54	59.87
926.711	60.98
926.883	60.2
927.054	57.96
927.226	60.32
927.397	57.04
927.568	59.15
927.74	59.6
927.911	56.29
928.083	56.58
928.254	55.05
928.425	59.79
928.597	56.86
928.768	57.47
928.939	57.23
929.11	56.82
929.282	58.25
929.453	57.38
929.624	59.16
929.795	58.89
929.966	57.9
930.137	59.78
930.309	58.18
930.48	58.26
930.651	56.77
930.822	56.38
930.993	56.66
931.164	57.01
931.335	58.51
931.506	59.23
931.677	55.91
931.848	56.96
932.019	57.06
932.19	56.6
932.361	59.55
932.531	56.81
932.702	56.66
932.873	56.15
933.044	60.94
933.215	58.63
933.386	56.05
933.556	56.61
933.727	58.25
933.898	57.16
934.069	55.26
934.239	61.05
934.41	57.11
934.581	60.63
934.751	57.15
934.922	57.15
935.093	61.52
935.263	55.23
935.434	56.97
935.604	61.44
935.775	59.03
935.945	55.9
936.116	59.39
936.286	56.02
936.457	59.59
936.627	59.25
936.798	55.72
936.968	56.97
937.139	59.12
937.309	57.24
937.479	55.52
937.65	60.86
937.82	55.96
937.99	53.76
938.161	59.05
938.331	56.06
938.501	61.7
938.671	59.54
938.842	55.93
939.012	51.96
939.182	61.25
939.352	60.41
939.522	61.23
939.693	58.86
939.863	57.89
940.033	57.57
940.203	59.68
940.373	57.22
940.543	55.49
940.713	57.87
940.883	59.8
941.053	61.14
941.223	59.3
941.393	58.08
941.563	56.69
941.733	56.2
941.903	58.7
942.073	56.94
942.242	56.27
942.412	59.79
942.582	60.79
942.752	55.71
942.922	56.79
943.091	56.26
943.261	59.58
943.431	61.88
943.601	52.92
943.77	62.29
943.94	64.21
944.11	60.64
944.279	58.01
944.449	58.63
944.619	55.08
944.788	60.05
944.958	62.5
945.127	64.62
945.297	59.35
945.466	61.42
945.636	52.37
945.805	61.79
945.975	56.49
946.144	62.46
946.314	56.91
946.483	56.02
946.653	55.3
946.822	61.09
946.991	56
947.161	64.92
947.33	62.99
947.499	56.7
947.669	58.9
947.838	54.57
948.007	59.24
948.176	58.7
948.346	60.45
948.515	53.16
948.684	58.18
948.853	60.5
949.022	55.25
949.192	57.57
949.361	65.79
949.53	56.98
949.699	56.65
949.868	63.13
950.037	55.11
950.206	58.66
950.375	59.14
950.544	57.13
950.713	53.16
950.882	55.67
951.051	55.64
951.22	61.62
951.389	66.22
951.557	57.77
951.726	55.83
951.895	61.49
952.064	55.17
952.233	61.91
952.402	52.83
952.57	51.99
952.739	54.7
952.908	57.51
953.077	58.33
953.245	56.32
953.414	53.42
953.583	57.47
953.751	59.09
953.92	58.24
954.088	55.23
954.257	54.58
954.426	56.49
954.594	55.93
954.763	56.25
954.931	59.36
955.1	61.66
955.268	60.54
955.437	57.89
955.605	55.08
955.774	58.69
955.942	57.63
956.11	59.14
956.279	60.53
956.447	60.38
956.615	57.83
956.784	56.2
956.952	53.92
957.12	56.63
957.289	57.87
957.457	55.49
957.625	54.66
957.793	56.11
957.962	51.51
958.13	52.03
958.298	55.06
958.466	59.81
958.634	62.03
958.802	61.53
958.97	56.48
959.138	60.39
959.306	52.32
959.474	60.37
959.642	57.86
959.81	56.36
959.978	54.42
960.146	51.66
960.314	59.79
960.482	54.99
960.65	59.76
960.818	53.99
960.986	59.11
961.154	55.98
961.322	54.3
961.489	63.63
961.657	56.43
961.825	54.94
961.993	61.56
962.16	55.55
962.328	64.47
962.496	51.45
962.664	55.59
962.831	58.31
962.999	61.43
963.167	55.02
963.334	56.28
963.502	60.62
963.669	60.32
963.837	56
964.004	56.68
964.172	52.75
964.339	52.17
964.507	61
964.674	53.98
964.842	58.58
965.009	53.84
965.177	57.91
965.344	58.13
965.511	52.21
965.679	60.68
965.846	57.78
966.013	56.59
966.181	56.45
966.348	57.97
966.515	61.35
966.683	59.42
966.85	63.32
967.017	51.09
967.184	57.52
967.351	57.34
967.519	52.77
967.686	61.5
967.853	55.15
968.02	59.19
968.187	57.06
968.354	55.78
968.521	55.36
968.688	55.05
968.855	55.93
969.022	55.46
969.189	63.43
969.356	55.2
969.523	52.45
969.69	54.57
969.857	52.92
970.024	64.02
970.191	50.61
970.358	52.73
970.524	57.89
970.691	59.27
970.858	51.94
971.025	53.28
971.192	49.34
971.358	58.35
971.525	53.9
971.692	53.06
971.858	54.09
972.025	54.99
972.192	57.38
972.358	51.45
972.525	52.61
972.692	56.71
972.858	57.2
973.025	60.17
973.191	54.75
973.358	58.63
973.524	59.04
973.691	54.72
973.857	56.08
974.024	56.68
974.19	51.23
974.356	45.21
974.523	62.53
974.689	55.72
974.856	55.15
975.022	62.5
975.188	54.95
975.355	54.52
975.521	53.77
975.687	59.43
975.853	51.23
976.02	58.65
976.186	63.7
976.352	56.17
976.518	54.34
976.684	66.95
976.85	51.37
977.017	63.54
977.183	57.82
977.349	51.67
977.515	51.18
977.681	49.06
977.847	54.89
978.013	51.87
978.179	52.95
978.345	52.51
978.511	54.39
978.677	54.24
978.843	48.8
979.009	60.99
979.175	51.04
979.34	60.63
979.506	53.07
979.672	54.8
979.838	65.33
980.004	61.8
980.169	64.82
980.335	61.02
980.501	56.35
980.667	56.03
980.832	58.55
980.998	45.49
981.164	49.89
981.329	50.61
981.495	58.04
981.661	70.08
981.826	60.38
981.992	58.35
982.157	50.27
982.323	65.84
982.488	54.43
982.654	52.02
982.819	57.44
982.985	56.6
983.15	56.16
983.316	51.41
983.481	59.15
983.646	52.23
983.812	47.45
983.977	59.23
984.142	60.78
984.308	54.49
984.473	62.88
984.638	60.99
984.804	55.34
984.969	50.15
985.134	59.95
985.299	57.54
985.465	60.86
985.63	54.9
985.795	53.4
985.96	52.03
986.125	54.26
986.29	54.07
986.455	53.48
986.62	59.13
986.785	54.24
986.95	52.19
987.115	61.97
987.28	49.38
987.445	63.98
987.61	53.73
987.775	55.03
987.94	64.23
988.105	62.09
988.27	55.13
988.435	53.84
988.6	60.22
988.764	59.25
988.929	59.24
989.094	53.36
989.259	52.57
989.423	62.22
989.588	51.77
989.753	54.25
989.918	49.52
990.082	63.8
990.247	57.76
990.412	56.67
990.576	69.42
990.741	64.14
990.905	53.28
991.07	55.12
991.234	51.98
991.399	57.02
991.563	44.86
991.728	55.57
991.892	43.88
992.057	49.63
992.221	65.41
992.386	62.6
992.55	65.7
992.715	51.64
992.879	54.53
993.043	56.83
993.208	63.76
993.372	48.62
993.536	47.24
993.7	64.55
993.865	67.63
994.029	61.33
994.193	60.2
994.357	53.49
994.521	59.31
994.686	59.72
994.85	42.06
995.014	68.39
995.178	44.03
995.342	58.28
995.506	58.86
995.67	65.77
995.834	51.5
995.998	69.22
996.162	54.04
996.326	38.58
996.49	55.13
996.654	47.36
996.818	62.03
996.982	61.33
997.146	71.39
997.31	51.11
997.473	57.76
997.637	55.14
997.801	43.79
997.965	66.87
998.129	62.22
998.292	48.54
998.456	62.49
998.62	50.08
998.784	74.84
998.947	55.21
999.111	41.78
999.274	45.73
999.438	57.77
999.602	44.51
999.765	46.44
999.929	50.09
1000.092	58.5
1000.256	57.96
1000.419	66.79
1000.583	49.08
1000.746	56.88
1000.91	51.09
1001.073	67.64
1001.237	55.97
1001.4	74.75
1001.563	54.68
1001.727	68.99
1001.89	58.67
1002.054	57.29
1002.217	53.87
1002.38	67.07
1002.543	48.62
1002.707	55.9
1002.87	56.71
1003.033	57.36
1003.196	67.83
1003.359	50.78
1003.523	66.56
1003.686	66.05
1003.849	71.1
1004.012	66.56
1004.175	62.63
1004.338	42.36
1004.501	55.93
1004.664	56.59
1004.827	60.47
1004.99	54.55
1005.153	45.12
1005.316	56.92
1005.479	64.29
1005.642	50.25
1005.805	40.09
1005.968	64.35
1006.131	70.71
1006.293	48.2
1006.456	59.64
1006.619	68.37
1006.782	49.09
1006.945	65.12
1007.107	84.95
1007.27	94.96
1007.433	76.06
1007.595	44.81
1007.758	69
1007.921	37.63
1008.083	37.79
1008.246	50.53
1008.409	68.8
1008.571	84.99
1008.734	92.35
1008.896	60.55
1009.059	21.06
1009.221	66.7
1009.384	87.46
1009.546	78.82
1009.709	36.59
1009.871	39.64
1010.034	51.28
1010.196	59.49
1010.358	60.33
1010.521	16.46
1010.683	55.81
1010.845	51.7
1011.008	42.3
1011.17	60.98
1011.332	55.95
1011.495	66.03
1011.657	88.43
1011.819	58.2
1011.981	50.67
1012.143	46.02
1012.305	53.28
1012.468	56.03
1012.63	50.41
1012.792	16.45
1012.954	82.76
1013.116	77.89
1013.278	74.82
1013.44	80.69
1013.602	47
1013.764	68.49
1013.926	52.56
1014.088	55.6
1014.25	61.52
1014.412	37.92
1014.574	79.7
1014.736	29
1014.897	77.96
1015.059	51.8
1015.221	58.66
1015.383	88.13
1015.545	49.07
1015.706	42.7
1015.868	57.81
1016.03	80.74
1016.192	34.42
1016.353	32.76
1016.515	46.63
1016.677	61.09
1016.838	100.78
1017	7.83
1017.161	82.34
1017.323	53.83
1017.485	74.14
1017.646	40.99
1017.808	61.66
1017.969	21.24
1018.131	81.12
1018.292	55.09
1018.453	43.46
1018.615	65.03
1018.776	54.9
1018.938	8.2
1019.099	38.24
1019.26	67.1
1019.422	105.35
1019.583	44.83
1019.744	38.46
1019.906	99.15
1020.067	65.63
1020.228	39.17
1020.389	48.89
1020.551	80.82
1020.712	100.54
1020.873	23.55
1021.034	79.89
1021.195	15.7
1021.356	89.53
1021.517	-4.67
1021.678	75.71
1021.839	53.38
1022.001	55.24
1022.162	-11.21
1022.323	59.25
1022.483	-80.06
1022.644	36.2
1022.805	9.42
1022.966	57.89
1023.127	46.61
1023.288	34.3
1023.449	54.37
1023.61	58.19
1023.771	79.25
1023.931	56.3
1024.092	17.02
1024.253	80.72
1024.414	65.78
1024.574	84.17
1024.735	28.32
1024.896	136.23
1025.057	32.51
1025.217	74.52
1025.378	64.07
1025.538	184.21
1025.699	89.78
1025.86	190.45
1026.02	47.9
1026.181	57.18
1026.341	62.35
1026.502	-110.43
1026.662	29.36
1026.823	39.45
1026.983	88.57
1027.144	61.6
1027.304	53.4
1027.464	54.9
1027.625	77.08
1027.785	50.61
1027.946	99.51
1028.106	74.94
1028.266	107.37
1028.426	74.14
1028.587	59.93
1028.747	-28.81
1028.907	76.69
1029.067	69.26
1029.228	23.77
1029.388	87.17
1029.548	-40.64
1029.708	36.24
1029.868	-1027.27
1030.028	185.44
1030.188	99.37
1030.348	33.12
1030.508	3.32
1030.668	59.9
1030.828	92.22
1030.988	92.51
1031.148	84.45
1031.308	104.92
1031.468	91.08
1031.628	103.8
1031.788	89.64
1031.948	107.76
1032.108	103.46
1032.268	81.6
1032.427	44.39
1032.587	118.96
1032.747	282.68
1032.907	39.34
1033.066	21.81
1033.226	39.67
1033.386	71.92
1033.545	25.09
1033.705	140
1033.865	43.66
1034.024	45.91
1034.184	239.13
1034.344	-1954.55
1034.503	-137.8
1034.663	10.6
1034.822	356.88
1034.982	182.64
1035.141	93.89
1035.301	-2.83
1035.46	218.26
1035.62	-682.86
1035.779	53.36
1035.938	102.82
1036.098	102.82
1036.257	102.82
